20060814 534.21 534.21 530.29 530.29 7563412
20060815 530.29 544.33 525.06 542.05 7417287
20060816 542.05 561.95 538.78 553.79 15859287
20060817 552.16 567.51 552.16 555.76 10356150
20060818 556.41 563.59 545.95 550.53 9679862
20060821 550.53 553.79 540.41 546.29 4450250
20060822 546.62 551.51 536.49 549.87 6857024
20060823 551.51 555.76 544.98 547.27 7224699
20060824 550.21 552.49 544.65 550.21 6547887
20060825 548.90 560.98 544.00 558.05 7003674
20060828 558.05 558.05 558.05 558.05 0
20060829 561.63 561.63 553.79 556.41 8846250
20060830 557.38 558.37 546.94 557.06 7834924
20060831 557.06 558.70 547.27 551.51 5804312
20060901 550.86 558.37 546.62 556.41 10595900
20060904 557.71 579.92 555.76 572.08 15753324
20060905 572.08 580.24 565.55 580.24 10835825
20060906 581.87 596.90 565.55 569.47 22454774
20060907 561.95 574.37 556.41 564.24 10514350
20060908 564.57 573.71 564.57 571.76 6320824
20060911 567.51 582.21 560.33 576.00 9005412
20060912 577.30 581.22 565.55 579.27 18695162
20060913 577.30 582.53 558.05 565.22 20864986
20060914 564.57 575.35 557.71 562.29 17804150
20060915 564.57 566.86 560.33 561.63 26529474
20060918 562.94 563.59 555.43 558.37 9797725
20060919 559.02 559.02 551.19 556.08 10808875
20060920 563.27 579.92 561.63 569.47 23512036
20060921 574.05 574.05 560.33 566.21 14863537
20060922 560.98 563.27 553.47 555.10 10090150
20060925 555.10 557.71 538.45 542.05 16115749
20060926 542.37 560.65 542.05 557.06 11139450
20060927 561.30 573.71 560.65 572.08 13959487
20060928 573.38 586.13 569.47 578.94 12956299
20060929 604.73 614.53 582.21 585.14 32064636
20061002 596.24 598.21 580.57 581.55 23765174
20061003 577.30 577.30 568.16 574.70 16920312
20061004 576.65 582.53 568.16 570.13 26597462
20061005 564.24 581.22 563.27 575.35 23299324
20061006 579.27 582.53 571.43 573.71 14983237
20061009 571.43 581.22 570.78 576.98 10443475
20061010 585.79 629.87 583.84 624.33 29904962
20061011 620.41 624.00 608.33 618.13 15513662
20061012 616.49 638.05 615.51 622.05 12693537
20061013 624.98 635.10 619.10 621.71 8759537
20061016 620.73 630.86 610.29 610.29 8998150
20061017 614.21 619.10 598.53 600.81 10995600
20061018 608.65 636.73 608.65 628.57 12395949
20061019 623.35 631.19 618.13 621.71 7573212
20061020 624.33 636.08 624.33 632.16 7159162
20061023 637.71 637.71 626.62 631.51 2521750
20061024 634.45 634.78 626.62 629.87 4803575
20061025 631.51 636.73 620.41 625.95 9902725
20061026 633.47 637.06 626.94 629.55 5507512
20061027 632.49 640.98 627.92 632.81 13778712
20061030 627.59 632.16 622.05 624.33 6375249
20061031 622.70 641.30 621.06 637.38 8227012
20061101 632.16 643.92 628.90 630.86 4723337
20061102 631.84 634.78 624.33 629.22 8862875
20061103 629.87 640.98 628.57 633.47 6236212
20061106 633.79 641.30 630.21 641.30 7569099
20061107 642.62 645.22 637.06 640.65 7824424
20061108 640.00 659.59 629.22 637.38 15427824
20061109 641.95 641.95 601.14 635.43 19376350
20061110 633.79 643.92 626.62 636.08 13372887
20061113 640.65 642.62 624.65 629.55 14406524
20061114 629.55 642.29 629.55 633.47 11908574
20061115 635.43 640.00 617.79 623.67 14515199
20061116 624.00 642.62 621.71 635.76 8769337
20061117 639.02 640.00 624.65 629.87 18586224
20061120 629.22 639.35 624.65 637.38 7586249
20061121 640.98 641.95 629.87 633.47 9927312
20061122 633.47 641.30 631.51 640.98 8911962
20061123 643.92 643.92 634.78 642.62 4658325
20061124 643.27 643.27 630.86 633.14 16892750
20061127 631.19 638.05 620.41 620.73 22210036
20061128 617.47 622.37 608.65 613.87 10298837
20061129 618.78 628.24 616.49 619.10 10958587
20061130 620.41 634.13 617.79 619.10 19392012
20061201 620.41 626.94 606.70 613.55 11763499
20061204 612.57 624.65 610.94 619.76 8336037
20061205 620.73 633.47 613.87 626.94 10117712
20061206 634.78 644.24 629.87 642.29 14928462
20061207 639.35 660.90 638.37 653.38 20753686
20061208 649.14 655.67 642.94 654.37 9931775
20061211 658.62 669.38 653.06 663.84 7105174
20061212 668.41 668.41 646.53 649.79 10219037
20061213 651.10 652.41 638.05 646.21 14258037
20061214 646.21 662.21 641.95 660.24 7653099
20061215 657.30 673.63 657.30 665.47 10945200
20061218 664.81 672.33 661.55 670.05 7943249
20061219 669.06 671.67 663.51 664.81 4157387
20061220 670.70 673.30 665.47 673.30 5803524
20061221 674.62 681.79 670.05 678.86 6664349
20061222 672.65 694.86 672.65 686.37 2796937
20061225 686.37 686.37 686.37 686.37 0
20061226 686.37 686.37 686.37 686.37 0
20061227 688.33 692.24 679.19 685.71 6144424
20061228 684.41 688.33 681.14 684.73 6546049
20061229 683.10 685.06 679.19 682.78 1496599
20070101 682.78 682.78 682.78 682.78 0
20070102 679.84 696.49 679.19 694.21 5781824
20070103 692.57 694.86 688.33 694.86 10495450
20070104 691.92 691.92 682.78 690.94 6590937
20070105 689.63 689.95 680.49 685.38 7668412
20070108 684.41 691.59 679.84 681.79 5942824
20070109 681.79 687.35 675.27 680.81 11799024
20070110 674.29 675.27 662.21 668.73 13088512
20070111 667.76 684.08 663.51 683.10 18558312
20070112 684.41 689.63 678.21 682.78 6670649
20070115 682.45 695.84 682.45 689.30 4565925
20070116 685.06 693.22 680.49 681.79 14939574
20070117 689.63 700.08 685.71 694.53 9682225
20070118 694.86 729.47 694.86 703.02 20401500
20070119 700.73 709.55 697.47 707.92 6071099
20070122 709.55 720.65 705.63 712.81 9445450
20070123 711.84 720.98 705.30 707.27 5453700
20070124 710.53 730.13 704.33 723.59 9125375
20070125 723.59 735.02 719.35 721.30 8233574
20070126 717.71 718.37 709.87 710.21 9075150
20070129 705.30 715.10 703.67 713.14 11469149
20070130 711.19 711.19 701.38 702.05 6726999
20070131 696.81 705.63 696.49 698.45 8505087
20070201 698.45 717.71 698.45 714.78 9694912
20070202 710.86 722.62 709.87 714.13 6697424
20070205 713.47 747.10 708.24 745.47 16452799
20070206 745.47 761.47 740.90 756.24 13715974
20070207 752.65 754.94 734.37 744.49 12699924
20070208 747.76 751.02 737.63 745.79 10531500
20070209 751.67 775.84 751.02 772.57 16047762
20070212 779.43 787.59 750.70 752.33 12549074
20070213 753.95 753.95 730.13 734.05 10199525
20070214 742.21 756.24 732.73 756.24 11784062
20070215 756.24 765.06 753.95 761.47 8806700
20070216 756.57 769.95 755.59 768.65 8811075
20070219 770.62 780.08 770.62 778.45 5850249
20070220 777.14 782.37 765.38 773.87 7080149
20070221 773.55 781.06 762.45 767.35 9405987
20070222 767.02 776.81 762.78 774.86 20708886
20070223 781.38 781.38 763.43 774.53 9532250
20070226 769.30 779.76 764.41 768.00 6207599
20070227 762.13 766.70 724.57 727.51 18411924
20070228 719.02 726.86 692.57 717.06 21150936
20070301 715.76 739.59 685.38 702.37 28548974
20070302 704.98 715.76 689.30 699.76 22072224
20070305 672.33 696.16 669.71 690.62 16061587
20070306 697.47 701.71 684.08 691.59 13757974
20070307 676.57 700.73 665.47 685.06 26184112
20070308 685.71 711.51 685.71 705.63 14794149
20070309 701.38 713.14 696.16 708.24 10387475
20070312 711.51 720.98 695.19 695.19 7038587
20070313 688.33 693.87 670.37 670.37 13443674
20070314 651.76 654.37 628.24 643.27 27059374
20070315 662.21 687.67 656.33 687.67 20199986
20070316 687.67 693.87 677.87 686.70 9874112
20070319 696.16 705.95 694.21 701.38 8685512
20070320 702.05 712.49 692.90 706.62 11722374
20070321 707.27 720.33 697.47 713.14 7831862
20070322 724.90 740.57 719.67 725.55 14329262
20070323 726.86 728.16 717.71 726.86 5895749
20070326 729.47 731.43 710.53 713.14 6055612
20070327 724.24 725.55 706.62 711.19 8190087
20070328 711.19 720.98 701.38 709.22 6571424
20070329 715.76 742.53 706.62 737.95 20671174
20070330 756.90 758.86 720.33 724.90 26256474
20070402 720.33 737.95 720.33 733.38 9409837
20070403 736.65 742.53 732.08 741.22 8740637
20070404 744.49 749.71 732.08 743.84 12385012
20070405 748.41 748.41 724.24 731.43 12041399
20070406 731.43 731.43 731.43 731.43 0
20070409 731.43 731.43 731.43 731.43 0
20070410 730.13 739.92 730.13 738.62 4727362
20070411 735.35 739.27 726.21 730.78 6322662
20070412 726.21 730.13 714.45 724.24 8652787
20070413 720.33 729.47 720.33 728.16 6436587
20070416 737.95 745.79 735.35 743.19 9116012
20070417 742.53 745.14 728.16 741.22 7080587
20070418 744.49 749.71 741.22 745.14 8911437
20070419 737.30 743.19 727.51 736.65 6212499
20070420 743.19 747.10 722.29 725.55 19705962
20070423 724.90 735.35 718.37 724.24 11218024
20070424 726.86 730.78 711.84 717.06 6242512
20070425 717.06 726.86 715.76 722.94 7839562
20070426 728.81 737.30 724.90 733.38 9407737
20070427 729.47 731.43 722.94 726.21 5662737
20070430 730.78 748.41 727.51 737.95 10377937
20070501 748.41 748.41 727.51 732.08 4514825
20070502 738.62 759.51 736.65 758.86 11767787
20070503 758.21 758.86 744.49 747.76 7694662
20070504 742.53 767.35 739.92 763.43 7786887
20070507 763.43 763.43 763.43 763.43 0
20070508 754.94 759.51 742.53 751.67 5327087
20070509 756.24 762.78 742.53 744.49 7849887
20070510 752.33 758.21 743.84 749.71 10857525
20070511 744.49 752.98 727.51 750.37 11419537
20070514 756.90 758.21 739.27 745.14 5798624
20070515 741.22 752.98 739.27 743.84 8481550
20070516 744.49 747.10 735.35 742.53 7688799
20070517 744.49 756.90 743.19 754.94 6798487
20070518 757.55 760.16 751.02 756.24 7840437
20070521 755.59 757.55 746.45 750.37 5825049
20070522 756.24 764.73 752.98 762.78 15389412
20070523 764.08 777.79 761.47 769.95 12237399
20070524 768.00 775.84 760.81 766.05 9472137
20070525 765.38 767.35 754.29 758.86 5215262
20070528 758.86 758.86 758.86 758.86 0
20070529 765.38 769.30 752.33 766.05 6691387
20070530 754.29 761.47 747.76 758.21 5182187
20070531 762.78 771.92 757.55 768.65 13652187
20070601 768.65 768.65 768.65 768.65 0
20070604 773.87 777.14 762.13 770.62 6732424
20070605 770.62 775.84 758.86 760.81 7388237
20070606 760.81 773.87 747.76 755.59 24514612
20070607 757.55 764.08 734.70 736.65 15359924
20070608 727.51 750.37 717.71 743.84 14201949
20070611 745.14 760.16 743.19 760.16 11305612
20070612 758.86 766.05 754.94 764.08 9494625
20070613 758.86 777.14 753.63 769.95 16957500
20070614 773.22 794.13 771.92 790.21 18023336
20070615 792.81 808.49 787.59 807.19 18500562
20070618 806.53 822.86 806.53 811.10 12952012
20070619 803.92 813.71 799.35 799.35 12235124
20070620 811.76 824.81 808.49 816.98 42601472
20070621 809.79 824.16 805.87 813.06 24050162
20070622 812.41 823.51 810.45 816.98 16102799
20070625 811.10 813.71 798.70 807.84 10005362
20070626 803.27 807.19 794.13 794.13 15863749
20070627 788.90 791.51 755.59 769.30 44508712
20070628 779.10 791.51 771.27 789.55 34772412
20070629 794.78 800.65 774.53 795.43 13910399
20070702 788.90 796.08 785.63 790.86 25845924
20070703 797.38 808.49 792.81 804.57 15205049
20070704 794.78 807.84 794.78 803.27 12155149
20070705 802.62 803.92 781.71 782.37 25431086
20070706 780.41 787.59 770.62 784.33 18869550
20070709 789.55 792.81 784.33 784.98 8224212
20070710 784.98 790.21 769.30 774.53 16798424
20070711 762.13 777.79 760.81 773.87 17336550
20070712 781.06 805.22 777.14 805.22 23296786
20070713 811.10 830.70 811.10 827.43 18723250
20070716 830.05 835.27 815.02 818.94 12139137
20070717 822.21 822.21 797.38 800.65 17927436
20070718 783.67 796.73 768.00 786.94 39553760
20070719 781.06 805.22 780.41 784.33 36586284
20070720 786.29 789.55 781.71 781.71 18121074
20070723 777.79 798.70 777.79 796.08 13851687
20070724 790.21 816.98 790.21 801.30 22934886
20070725 798.05 803.92 784.33 789.55 13997199
20070726 784.33 790.86 752.33 756.90 20512362
20070727 745.14 748.41 720.33 735.35 37874812
20070730 737.95 737.95 705.95 713.14 29410062
20070731 731.43 744.49 728.16 741.87 26348436
20070801 706.62 717.06 694.21 701.38 36031272
20070802 713.14 717.71 704.65 705.95 28306424
20070803 707.27 720.33 704.00 709.22 17363324
20070806 698.13 700.08 678.53 684.41 28381586
20070807 687.67 705.95 687.67 705.95 24259636
20070808 717.06 741.22 713.79 737.95 16917774
20070809 732.73 734.05 659.59 688.33 56926536
20070810 653.06 659.59 615.84 625.95 57834524
20070813 637.38 672.65 637.38 668.73 28527362
20070814 662.21 677.87 640.00 645.87 24445574
20070815 629.55 642.62 606.05 636.41 70287872
20070816 610.62 623.35 578.29 583.51 39220560
20070817 589.06 661.55 574.70 599.51 60596812
20070820 605.38 623.35 603.76 606.70 34043624
20070821 604.73 614.21 591.02 598.21 68371800
20070822 609.63 633.14 608.65 628.90 32031036
20070823 640.00 653.71 636.41 640.00 30310086
20070824 641.95 641.95 617.14 623.67 21415362
20070827 623.67 623.67 623.67 623.67 0
20070828 630.21 636.41 611.27 617.79 17331650
20070829 617.79 631.51 608.65 625.30 19010512
20070830 637.38 641.63 624.65 635.10 17013500
20070831 644.90 653.06 625.95 644.57 20454086
20070903 650.78 653.06 641.30 649.14 14361987
20070904 648.49 663.51 637.38 663.51 12690912
20070905 659.59 662.86 634.45 639.02 10458175
20070906 645.22 651.10 623.02 644.90 14496387
20070907 640.98 644.57 620.73 624.00 24496936
20070910 626.94 626.94 611.92 614.53 18373686
20070911 624.33 639.35 623.35 635.43 19162500
20070912 637.71 644.57 624.98 630.21 7184712
20070913 637.06 648.49 623.35 644.90 11944099
20070914 641.95 644.24 611.27 632.81 11475624
20070917 627.59 632.81 602.45 610.29 12682774
20070918 604.41 630.53 602.45 624.00 15927449
20070919 653.06 670.70 642.62 660.90 38500084
20070920 659.59 662.86 643.92 659.59 9596125
20070921 656.98 675.27 656.98 672.65 18797100
20070924 673.95 683.76 670.70 683.10 23827912
20070925 696.16 710.53 690.94 698.13 27918098
20070926 705.30 717.71 700.08 704.65 20427750
20070927 713.79 730.13 712.49 725.55 22718586
20070928 730.78 735.35 714.45 722.94 13902962
20071001 722.29 734.05 709.22 715.76 11375962
20071002 720.98 732.73 720.98 728.16 11036200
20071003 728.81 744.49 724.90 737.95 9169650
20071004 734.05 749.06 732.73 735.35 7384387
20071005 740.57 752.33 728.81 751.67 10359212
20071008 753.63 765.38 747.76 752.33 7082949
20071009 749.71 760.81 747.76 754.94 6306212
20071010 760.81 760.81 741.87 745.79 10006237
20071011 748.41 761.47 724.24 729.47 20136550
20071012 725.55 730.13 709.22 728.81 11349537
20071015 729.47 737.30 705.30 707.92 11128337
20071016 708.57 709.87 689.63 697.47 10075012
20071017 703.35 719.67 697.47 719.02 11366599
20071018 722.29 732.73 710.53 711.84 9732800
20071019 710.53 722.29 705.30 705.30 12204762
20071022 692.24 697.47 677.87 688.98 10330687
20071023 694.86 715.76 694.86 701.38 9889600
20071024 702.05 717.06 696.81 702.70 14221549
20071025 707.92 730.78 707.27 730.13 7993999
20071026 734.70 741.87 722.29 732.08 6258962
20071029 737.30 751.67 728.16 732.08 8572987
20071030 727.51 757.55 724.90 752.33 17962700
20071031 766.70 777.79 759.51 768.00 13403424
20071101 763.43 767.35 739.27 743.19 8443750
20071102 739.92 757.55 726.86 750.37 8947575
20071105 746.45 750.37 726.21 730.78 7205974
20071106 739.27 750.37 735.35 741.87 4644675
20071107 743.19 756.90 724.90 730.13 6182487
20071108 724.24 738.62 705.95 724.24 13039687
20071109 734.70 735.35 691.59 697.47 13420137
20071112 690.29 714.45 685.71 711.84 10992450
20071113 704.00 705.30 687.67 701.38 7695274
20071114 717.06 724.24 707.27 716.41 7501024
20071115 713.79 718.37 696.81 705.95 5175537
20071116 705.95 707.27 687.67 688.98 7281487
20071119 688.33 697.47 641.95 649.47 12925324
20071120 658.94 672.65 641.30 670.70 11462324
20071121 661.55 662.86 639.35 643.92 12947812
20071122 646.53 665.47 634.13 664.81 11246374
20071123 580.57 592.00 574.29 589.14 7446074
20071126 539.00 568.50 506.00 510.50 11171500
20071127 497.50 532.00 497.50 530.00 20878000
20071128 536.00 556.00 534.00 550.00 20340700
20071129 553.00 560.00 536.00 540.50 15645800
20071130 541.50 572.00 541.50 556.00 15930200
20071203 558.00 569.50 551.00 551.00 10424600
20071204 556.00 556.50 536.50 544.50 7340000
20071205 547.00 565.50 545.50 560.00 7349900
20071206 562.00 578.50 559.00 572.00 12708600
20071207 580.00 587.00 573.50 573.50 8747500
20071210 573.50 581.50 567.00 574.00 4529500
20071211 576.50 585.00 564.50 580.50 9245300
20071212 575.00 595.00 568.50 584.00 31484700
20071213 580.00 593.00 570.50 573.00 12767800
20071214 593.50 593.50 569.00 574.50 5194200
20071217 564.00 571.50 550.00 550.00 11495300
20071218 548.00 559.00 545.50 546.50 7121200
20071219 548.00 552.00 540.00 541.00 9983200
20071220 542.50 556.50 536.50 552.00 24224200
20071221 563.00 574.00 558.00 568.50 11207300
20071224 574.00 575.50 564.00 575.50 1065300
20071227 571.50 578.50 565.50 570.00 2876000
20071228 564.00 574.00 561.00 566.00 2531700
20071231 570.50 574.50 561.50 569.00 1224600
20080102 574.00 574.00 557.00 560.00 5016600
20080103 557.00 557.50 539.50 550.50 9928000
20080104 549.00 551.00 522.00 528.50 8740600
20080107 528.00 534.00 510.00 514.00 9040800
20080108 516.00 529.00 516.00 523.50 9263700
20080109 521.00 533.50 509.00 528.50 10831000
20080110 526.00 530.00 506.00 507.00 12653300
20080111 504.50 519.00 503.00 515.50 9992500
20080114 512.00 537.00 512.00 530.00 24923800
20080115 531.00 545.00 526.00 533.50 14935400
20080116 531.00 531.00 511.50 518.50 14444100
20080117 521.50 533.00 503.50 504.50 14110800
20080118 508.00 509.50 484.25 489.25 19817200
20080121 480.00 489.75 467.25 471.00 19961900
20080122 465.00 504.00 449.00 498.75 20103800
20080123 505.00 515.00 486.25 502.50 23866900
20080124 540.00 545.00 521.50 545.00 19703200
20080125 556.00 559.00 540.50 545.00 11895600
20080128 537.50 552.50 523.50 535.50 12196900
20080129 539.50 546.00 521.00 530.00 10497000
20080130 528.50 535.00 518.00 530.50 8925100
20080131 532.50 550.00 515.50 546.50 17033100
20080201 555.00 589.00 550.00 583.00 21458500
20080204 587.00 587.00 557.50 562.50 9403400
20080205 563.50 571.00 551.00 553.00 8117700
20080206 544.50 565.50 544.50 560.50 13449200
20080207 555.00 559.50 539.50 554.00 8607500
20080208 560.00 569.50 544.00 566.00 8283300
20080211 564.50 567.50 542.50 544.50 7544700
20080212 544.00 558.00 538.00 557.00 20704100
20080213 552.00 580.50 548.00 579.50 10758600
20080214 585.50 590.00 572.50 575.00 9250300
20080215 577.00 581.50 553.00 555.00 13511600
20080218 557.00 578.00 557.00 575.00 6034700
20080219 570.50 590.00 562.50 580.00 7467400
20080220 574.50 577.00 560.00 575.00 8568100
20080221 579.50 579.50 559.50 562.50 7148500
20080222 557.50 572.50 555.00 561.00 6808700
20080225 570.00 583.00 570.00 580.00 8117800
20080226 582.00 593.00 574.50 586.50 10132400
20080227 590.00 595.00 579.00 592.50 9345800
20080228 591.00 596.00 565.50 572.50 14742000
20080229 568.00 576.50 548.50 555.00 19947300
20080303 543.00 545.00 527.00 532.00 14045700
20080304 534.00 548.50 523.00 535.50 14128600
20080305 546.00 569.00 545.00 566.00 13339600
20080306 570.00 571.00 551.00 553.00 7368700
20080307 546.00 558.50 538.50 547.50 9661000
20080310 545.50 547.50 527.00 529.00 9462800
20080311 530.50 555.50 530.50 542.00 8300200
20080312 558.50 566.50 554.50 563.00 10336200
20080313 551.00 558.50 541.00 553.00 10068100
20080314 555.00 563.00 531.00 541.00 8005600
20080318 499.75 531.00 494.75 529.50 26751000
20080319 535.00 549.00 514.50 531.00 20440600
20080320 515.00 527.00 506.00 522.00 21854900
20080325 540.00 544.50 526.50 537.00 14738900
20080326 528.50 548.50 523.50 545.50 10724100
20080327 558.00 567.00 537.50 560.00 16601300
20080328 563.50 563.50 548.00 554.50 8949400
20080331 548.50 556.00 542.50 554.50 6152700
20080401 551.00 576.00 547.50 574.00 9980600
20080402 574.50 577.50 566.50 574.50 11364400
20080403 574.50 574.50 558.50 560.50 6104900
20080404 566.00 573.00 556.00 568.00 6358500
20080407 568.50 589.00 568.00 587.00 5654400
20080408 580.50 585.00 570.00 574.00 7205900
20080409 572.50 578.50 565.00 569.50 4413400
20080410 568.00 568.50 551.00 560.50 9761100
20080411 567.00 570.00 552.50 556.50 5766200
20080414 553.50 561.00 546.50 550.00 4773900
20080415 551.50 576.00 547.00 571.00 10437300
20080416 577.00 584.50 567.00 583.50 7269600
20080417 587.00 587.00 567.00 571.00 6163500
20080418 576.00 589.50 569.50 588.00 8034200
20080421 587.00 590.00 570.50 576.00 5776200
20080422 570.50 579.00 567.50 570.50 5059100
20080423 574.00 575.50 562.50 573.00 7381300
20080424 573.00 576.00 564.00 573.00 4089400
20080425 574.50 579.00 569.50 572.50 4801000
20080428 575.50 583.50 569.00 578.50 3710400
20080429 571.50 580.50 565.00 570.00 6983600
20080430 568.00 588.00 563.00 581.50 7971100
20080501 584.50 584.50 574.50 578.50 4151900
20080502 581.00 590.00 580.50 588.00 6425000
20080506 583.50 592.50 581.00 584.00 5649200
20080507 585.00 595.00 582.00 589.00 4424200
20080508 581.50 593.50 581.50 592.00 4392600
20080509 586.50 590.00 581.00 588.00 4513300
20080512 591.00 594.00 583.50 588.50 3030300
20080513 592.00 596.00 584.00 594.50 6600800
20080514 594.00 601.50 590.50 597.50 7090900
20080515 597.50 604.00 591.50 598.00 5470600
20080516 600.00 609.50 594.00 600.00 6691500
20080519 600.00 601.00 593.50 595.50 4740700
20080520 593.50 595.50 571.50 573.50 11675600
20080521 577.00 577.00 565.50 567.00 8253600
20080522 563.50 575.00 560.00 573.50 9425700
20080523 576.00 580.50 568.50 572.00 7364900
20080527 576.50 582.00 552.50 575.00 8088900
20080528 580.00 596.50 578.00 588.50 8676900
20080529 602.00 622.50 596.00 619.00 26127400
20080530 623.00 634.50 616.00 621.00 11423700
20080602 617.50 631.50 611.00 625.50 9277300
20080603 623.00 628.50 618.50 624.50 5073300
20080604 624.00 628.00 610.50 626.00 9857200
20080605 620.00 629.00 613.00 617.00 6237700
20080606 628.50 628.50 609.00 611.00 7417400
20080610 618.00 625.50 610.50 620.50 9863700
20080611 625.00 627.50 601.00 604.50 9666100
20080612 605.00 630.00 601.00 623.00 8126500
20080613 618.50 620.50 607.50 615.00 6342100
20080616 619.50 619.50 603.00 612.00 6843600
20080617 612.50 630.00 611.00 622.00 7971600
20080618 615.00 622.50 606.50 612.00 10669200
20080619 607.50 624.00 605.00 618.00 9322700
20080620 618.00 623.00 608.00 620.00 10982800
20080623 623.00 623.00 609.00 612.00 7868800
20080624 613.50 624.50 607.00 621.50 9490700
20080625 622.50 625.00 613.50 623.00 8114200
20080626 618.50 626.50 612.00 613.50 9411700
20080627 611.50 620.00 604.50 611.00 7302200
20080630 612.00 624.00 607.50 624.00 7138300
20080701 620.00 624.50 599.00 604.50 9391700
20080702 607.00 622.50 602.00 603.50 12709600
20080703 598.50 598.50 568.50 590.00 16778800
20080704 588.50 594.00 580.50 582.50 5360800
20080707 591.00 593.50 572.50 589.50 7806100
20080708 574.00 576.50 563.50 570.50 11621200
20080709 577.50 590.50 572.50 589.50 7647000
20080710 582.00 609.00 578.00 596.50 13693800
20080711 602.00 611.00 594.00 601.00 14922000
20080714 612.00 639.00 607.50 622.00 11804700
20080715 619.00 619.00 595.00 603.00 11869000
20080716 598.50 602.00 571.50 596.50 10797000
20080717 611.00 620.00 600.50 615.00 11273700
20080718 612.50 629.00 604.50 621.00 12948600
20080721 622.50 632.00 611.00 624.00 14489000
20080722 615.50 622.50 587.00 604.50 21849600
20080723 614.00 624.50 604.50 613.50 16910500
20080724 619.50 619.50 603.00 605.50 8938400
20080725 594.00 601.50 580.50 591.50 12667200
20080728 589.00 596.00 580.50 588.00 13213300
20080729 579.00 587.50 570.50 585.00 8039500
20080730 595.00 614.50 589.00 611.00 6518300
20080731 616.50 618.00 599.50 614.50 10003900
20080801 620.00 623.50 612.00 620.00 10437700
20080804 621.50 625.00 610.00 613.50 8995000
20080805 611.00 611.00 561.50 565.00 27216400
20080806 562.50 565.00 538.00 550.00 22656100
20080807 549.00 560.00 536.00 553.50 19541200
20080808 550.50 550.50 532.50 540.00 11811600
20080811 545.50 552.00 536.50 550.00 11794000
20080812 549.50 551.50 533.00 538.00 11122300
20080813 537.50 549.00 529.50 530.00 10506500
20080814 524.00 537.50 509.00 519.00 13343500
20080815 524.00 530.00 504.50 506.50 10416500
20080818 508.00 523.50 502.00 519.50 8552600
20080819 517.50 517.50 505.00 507.00 8415000
20080820 514.50 534.50 511.50 532.00 8528800
20080821 526.50 531.00 519.00 524.00 5447300
20080822 528.00 547.50 524.50 545.00 9402300
20080826 535.00 555.00 532.00 551.50 6764500
20080827 546.00 548.50 536.50 544.00 6562800
20080828 546.00 559.50 540.50 555.50 7267500
20080829 560.00 570.00 553.50 569.00 9364600
20080901 567.00 567.00 556.50 562.50 4282500
20080902 565.00 567.00 537.00 540.50 11736500
20080903 520.00 536.50 520.00 525.50 9729700
20080904 528.50 536.00 502.50 505.00 6228600
20080905 501.00 507.00 487.25 492.75 12758600
20080908 513.50 524.00 505.50 510.00 5005500
20080909 515.00 519.50 501.50 503.50 11140600
20080910 505.00 523.50 497.50 520.50 12256300
20080911 521.50 529.00 514.50 525.50 9718500
20080912 532.50 537.50 506.00 513.50 10413900
20080915 498.00 498.00 450.00 467.75 23087400
20080916 453.75 474.25 436.25 460.25 14647800
20080917 473.25 482.75 441.75 443.00 12204300
20080918 441.25 444.25 405.25 405.25 26867600
20080919 548.00 548.00 390.25 470.00 27902200
20080922 470.00 477.25 433.50 433.50 14772000
20080923 420.00 421.00 374.50 398.00 28578800
20080924 406.50 415.00 394.25 408.00 26007800
20080925 414.00 414.00 374.00 382.75 23755400
20080926 375.00 380.00 366.25 373.75 13238800
20080929 366.25 384.50 305.50 305.50 28674900
20080930 285.00 343.00 272.00 336.75 36731300
20081001 358.00 372.50 343.75 350.75 23425100
20081002 351.00 365.00 342.75 345.00 9012000
20081003 345.00 349.50 336.00 349.50 9490200
20081006 312.00 332.25 280.00 286.25 7202100
20081007 300.00 328.25 282.75 308.50 10706400
20081008 281.00 333.50 281.00 300.00 13933800
20081009 294.00 335.00 293.00 311.25 7915700
20081010 276.00 312.50 255.00 293.00 10090100
20081013 307.50 340.50 307.50 337.50 15234400
20081014 350.00 375.00 346.25 361.75 10764400
20081015 364.25 364.25 324.00 329.50 11099900
20081016 314.50 332.25 300.50 310.00 6957300
20081017 328.50 328.50 305.75 317.75 12684900
20081020 327.25 359.25 315.00 352.75 13059000
20081021 361.25 375.00 341.75 343.75 11505400
20081022 331.00 362.00 324.25 354.00 15538800
20081023 352.50 375.75 349.00 352.75 13495400
20081024 335.50 349.75 313.00 316.50 12949600
20081027 297.50 326.50 291.75 314.00 13111200
20081028 320.50 334.50 296.75 299.50 11522100
20081029 327.00 348.75 317.00 345.50 15730400
20081030 342.75 360.00 334.75 355.50 10331600
20081031 355.75 368.00 345.00 356.00 9399300
20081103 356.00 372.00 352.25 360.75 7964300
20081104 360.25 405.25 348.50 403.00 15193600
20081105 406.50 406.50 376.25 392.25 12738400
20081106 329.25 329.25 234.50 270.00 61505800
20081107 273.25 277.00 257.50 275.75 17078800
20081110 284.50 289.75 276.00 280.75 11210000
20081111 274.75 282.00 247.50 248.00 13344700
20081112 256.25 256.50 184.20 190.00 37708800
20081113 181.00 216.50 169.30 208.50 27494100
20081114 224.50 238.75 215.75 224.50 18988900
20081117 219.00 223.50 205.00 209.00 8751300
20081118 209.25 215.75 196.50 207.75 16413000
20081119 208.50 220.00 208.50 216.25 12845700
20081120 208.75 215.00 191.80 198.40 15895600
20081121 202.00 225.75 198.90 205.50 13004400
20081124 213.00 226.75 207.25 226.25 17059300
20081125 224.00 247.00 224.00 239.00 18758400
20081126 230.00 251.00 223.25 241.25 11935400
20081127 243.75 256.00 235.00 245.25 6327400
20081128 243.25 250.75 232.00 250.75 7166900
20081201 251.25 253.00 228.75 232.25 5130300
20081202 225.25 247.75 218.75 240.00 15165900
20081203 244.75 258.00 240.00 256.00 16693600
20081204 256.25 274.75 252.25 270.00 10911700
20081205 262.25 269.75 255.75 261.75 6424600
20081208 274.75 283.75 268.75 280.25 8146200
20081209 276.50 297.75 266.25 289.00 12813000
20081210 289.75 300.50 280.25 300.00 15158900
20081211 304.25 304.50 288.00 290.75 9771500
20081212 277.25 280.50 239.00 245.75 14349600
20081215 250.50 256.50 240.00 253.75 11115200
20081216 249.50 255.50 234.25 240.00 11304700
20081217 243.75 253.75 228.00 236.75 12163300
20081218 236.25 242.00 233.50 239.75 7418100
20081219 237.50 241.50 228.25 235.00 8145900
20081222 241.00 241.00 213.00 224.50 8219500
20081223 223.50 231.75 219.50 221.00 4544800
20081224 237.75 239.00 217.75 231.75 2087300
20081229 226.00 238.75 221.00 232.75 4007500
20081230 237.00 237.00 229.50 234.75 2876400
20081231 240.50 243.00 227.75 237.50 3561500
20090102 240.00 240.00 231.00 239.00 2249200
20090105 241.75 248.00 236.75 244.50 4833300
20090106 249.25 287.00 249.25 287.00 16225300
20090107 275.00 286.25 254.50 260.00 16234700
20090108 258.75 258.75 244.00 253.00 10203900
20090109 255.25 256.25 241.50 243.75 7831000
20090112 240.00 240.25 220.00 230.00 11504700
20090113 219.25 228.25 218.00 225.25 9682800
20090114 207.00 219.50 200.00 210.00 30865800
20090115 204.25 218.50 199.00 213.00 20291800
20090116 221.50 231.75 218.75 225.75 19612100
20090119 235.00 235.00 210.00 214.75 11127800
20090120 210.50 226.00 210.50 214.00 9750300
20090121 212.25 222.50 202.50 220.75 16334700
20090122 224.50 232.00 205.00 206.75 10004900
20090123 209.75 218.50 198.00 215.50 13551300
20090126 212.50 225.25 212.50 224.00 7031400
20090127 225.00 228.75 210.00 215.50 7438000
20090128 222.00 225.50 216.00 221.75 11879400
20090129 218.50 218.50 196.70 201.75 14682000
20090130 201.75 210.75 199.30 206.25 9487400
20090202 205.00 206.00 182.40 183.50 11410800
20090203 185.10 192.70 181.00 190.70 10619500
20090204 191.00 208.50 191.00 204.25 13424800
20090205 202.00 207.50 197.50 204.50 8148300
20090206 204.50 216.25 199.60 209.75 13679500
20090209 207.25 215.50 202.00 213.75 7951700
20090210 210.00 214.00 203.50 204.25 7431400
20090211 199.00 206.25 195.10 201.75 4803100
20090212 202.25 208.75 198.30 207.75 8619200
20090213 209.00 215.00 199.10 201.75 7105800
